#rho/A^-3 potentialEnergy/(eV) P/bar Ptarget/bar Tavg/K Ttarget/K v/A^3 avgEnthalpy/eV
0.122839955371531 -156.490378520967 -198.85483624438 -50 249.881899657615 250 8.14067374882613 -156.459141909628
0.123618445911332 -156.490627985012 1008.83083001254 950.005 249.845758385157 250 8.089407633528 -156.453289658828
0.124387249274018 -156.490898239483 1912.33227878609 1950.01 249.907391399519 250 8.03940923074079 -156.449050500952
0.125065397021974 -156.49112767812 2993.14436275832 2950.015 249.530684897841 250 7.99581677915512 -156.443982978203
0.125892754181989 -156.491303625213 3946.86851308695 3950.02 249.64286617632 250 7.9432689077118 -156.439515813557
0.126572470209699 -156.491423326002 4901.80003166772 4950.025 249.808382261631 250 7.90061218164777 -156.435010913146
0.127227698815838 -156.491522738799 6040.2613919127 5950.03 249.987807936056 250 7.85992365897852 -156.429624046257
0.127913333127034 -156.491626140488 6926.72317439652 6950.035 250.027004386794 250 7.81779331015379 -156.425559797906
0.12857795183449 -156.491592488692 7886.45405644421 7950.04 250.25783914637 250 7.77738318065006 -156.421010978153
0.129148772261889 -156.491660367217 8957.59963975427 8950.045 249.990155310125 250 7.74300817952952 -156.41610575943
0.129834708920042 -156.491634555551 9899.44502533938 9950.05 249.847000363341 250 7.70210068107324 -156.411794624229
0.13050912891095 -156.491542043401 11067.8665110836 10950.055 249.871893557561 250 7.66229924561316 -156.406360258113
0.131106512900945 -156.491501861986 12077.0578294064 11950.06 250.070007561506 250 7.62738614484797 -156.401733332189
0.131423054363423 -156.491505549535 12279.6408347115 12500 249.690992947655 250 7.60901506089419 -156.400957932594
0.131706172007317 -156.491455573624 12944.8494654475 12950.065 249.601637612802 250 7.5926586033071 -156.397902014324
0.132367344185003 -156.491328263532 13950.9599040638 13950.07 250.060838717403 250 7.55473342883085 -156.393276793452
